epoch,value
1709611789.345,0.000000
1709611790.344,0.980392
1709611791.345,1.000000
1709611792.344,0.000000
1709611793.344,0.000000
1709611794.345,0.000000
1709611795.345,0.000000
1709611796.344,0.000000
1709611797.345,0.000000
1709611798.344,0.000000
1709611799.344,0.000000
1709611800.344,0.000000
1709611801.344,0.000000
1709611802.344,0.000000
1709611803.345,0.000000
1709611804.345,0.000000
1709611805.344,0.000000
1709611806.345,0.000000
1709611807.344,0.000000
1709611808.344,0.000000
1709611809.344,0.000000
1709611810.344,0.000000
1709611811.345,0.000000
1709611812.344,0.000000
1709611813.344,0.000000
1709611814.344,0.000000
1709611815.344,0.000000
1709611816.345,0.980392
1709611817.344,0.000000
1709611818.345,0.000000
1709611819.345,0.000000
1709611820.344,0.000000
1709611821.344,0.000000
1709611822.345,0.000000
1709611823.345,0.000000
1709611824.344,0.000000
1709611825.344,0.000000
1709611826.345,0.000000
1709611827.344,0.000000
1709611828.345,0.000000
1709611829.345,0.000000
1709611830.344,0.000000
1709611831.345,0.000000
1709611832.344,0.000000
1709611833.345,0.000000
1709611834.345,0.000000
1709611835.344,0.000000
1709611836.344,0.000000
1709611837.344,0.000000
1709611838.344,0.000000
1709611839.344,0.000000
1709611840.344,0.000000
1709611841.344,0.000000
1709611842.345,0.000000
1709611843.344,0.000000
1709611844.345,0.000000
1709611845.344,0.000000
1709611846.344,0.000000
1709611847.345,0.000000
1709611848.344,0.000000
1709611849.345,0.000000
1709611850.345,0.000000
1709611851.344,0.000000
1709611852.344,0.000000
1709611853.344,0.000000
1709611854.344,0.000000
1709611855.344,0.000000
1709611856.345,0.000000
1709611857.344,0.000000
1709611858.344,0.000000
1709611859.344,0.000000
1709611860.345,0.000000
1709611861.344,0.000000
1709611862.344,0.000000
1709611863.344,0.000000
1709611864.344,0.000000
1709611865.345,0.000000
1709611866.344,0.000000
1709611867.344,0.000000
1709611868.344,0.000000
1709611869.344,0.000000
1709611870.344,0.000000
1709611871.344,0.000000
1709611872.345,0.000000
1709611873.345,0.000000
1709611874.345,0.000000
1709611875.344,0.000000
1709611876.345,0.000000
1709611877.345,0.000000
1709611878.344,0.000000
1709611879.345,0.990099
1709611880.345,0.000000
1709611881.344,0.000000
1709611882.344,0.000000
1709611883.344,0.000000
1709611884.344,0.000000
1709611885.344,0.000000
1709611886.344,0.990099
1709611887.344,0.000000
1709611888.344,0.000000
1709611889.344,0.000000
1709611890.344,0.000000
1709611891.345,0.000000
1709611892.344,0.000000
1709611893.344,0.000000
1709611894.345,0.000000
1709611895.345,0.000000
1709611896.344,0.000000
1709611897.344,0.000000
1709611898.344,0.000000
1709611899.344,0.000000
1709611900.345,0.000000
1709611901.344,0.000000
1709611902.345,0.000000
1709611903.345,0.000000
1709611904.344,0.000000
1709611905.344,0.000000
1709611906.344,0.000000
1709611907.344,0.000000
1709611908.344,0.000000
1709611909.344,0.000000
1709611910.344,0.000000
1709611911.345,0.000000
1709611912.344,0.000000
1709611913.344,0.000000
1709611914.344,0.000000
1709611915.344,0.000000
1709611916.345,0.000000
1709611917.345,0.000000
1709611918.344,0.000000
1709611919.344,0.000000
1709611920.344,0.000000
1709611921.344,0.000000
1709611922.345,0.000000
1709611923.344,0.000000
1709611924.345,0.990099
1709611925.345,0.000000
1709611926.345,0.000000
1709611927.344,0.000000
1709611928.344,0.000000
1709611929.344,0.000000
1709611930.344,0.000000
1709611931.345,0.000000
1709611932.344,0.000000
1709611933.345,0.000000
1709611934.344,0.000000
1709611935.344,0.000000
1709611936.344,0.000000
1709611937.345,0.000000
1709611938.344,0.000000
1709611939.344,0.000000
1709611940.344,0.000000
1709611941.344,0.000000
1709611942.345,0.000000
1709611943.345,0.000000
1709611944.344,0.000000
1709611945.344,0.000000
1709611946.344,0.000000
1709611947.345,0.000000
1709611948.344,0.000000
1709611949.345,0.000000
1709611950.345,0.000000
1709611951.344,0.000000
1709611952.345,0.000000
1709611953.344,0.000000
1709611954.344,0.000000
1709611955.345,0.000000
1709611956.344,0.000000
1709611957.344,0.000000
1709611958.345,0.000000
1709611959.345,0.000000
1709611960.345,0.000000
1709611961.344,0.000000
1709611962.345,0.000000
1709611963.345,0.000000
1709611964.345,0.000000
1709611965.345,0.000000
1709611966.345,0.000000
1709611967.345,0.000000
1709611968.345,0.000000
1709611969.344,0.000000
1709611970.345,0.000000
1709611971.345,0.000000
1709611972.345,0.000000
1709611973.344,0.000000
1709611974.345,0.000000
1709611975.344,0.000000
1709611976.344,0.000000
1709611977.344,0.000000
1709611978.345,0.000000
1709611979.344,0.000000
1709611980.345,0.000000
1709611981.344,0.990099
1709611982.345,0.000000
1709611983.344,0.000000
1709611984.345,0.000000
1709611985.344,0.000000
1709611986.344,0.000000
1709611987.345,0.000000
1709611988.345,0.000000
1709611989.344,0.000000
1709611990.345,0.000000
1709611991.345,0.000000
1709611992.345,0.000000
1709611993.344,0.000000
1709611994.344,0.000000
1709611995.344,0.000000
1709611996.344,0.000000
1709611997.345,0.000000
1709611998.345,0.000000
1709611999.345,0.000000
1709612000.344,0.000000
1709612001.344,0.000000
1709612002.345,0.000000
1709612003.344,0.000000
1709612004.345,0.000000
1709612005.345,0.000000
1709612006.345,0.000000
1709612007.345,0.000000
1709612008.344,0.000000
1709612009.345,0.000000
1709612010.344,0.000000
1709612011.344,0.000000
1709612012.345,0.000000
1709612013.344,0.000000
1709612014.345,0.000000
1709612015.344,0.000000
1709612016.344,0.000000
1709612017.344,0.000000
1709612018.344,0.000000
1709612019.344,0.000000
1709612020.345,0.000000
1709612021.344,0.000000
1709612022.344,0.000000
1709612023.345,0.000000
1709612024.344,0.000000
1709612025.344,0.000000
1709612026.344,0.000000
1709612027.344,0.000000
1709612028.345,0.000000
1709612029.344,0.000000
1709612030.345,0.000000
1709612031.345,0.000000
1709612032.344,0.000000
1709612033.345,0.000000
1709612034.345,0.000000
1709612035.345,0.000000
1709612036.344,0.000000
1709612037.344,0.000000
1709612038.345,0.000000
1709612039.344,0.000000
1709612040.344,0.000000
1709612041.344,0.000000
1709612042.344,0.990099
1709612043.344,0.000000
1709612044.345,0.000000
1709612045.344,0.000000
1709612046.344,0.000000
1709612047.344,0.000000
1709612048.344,0.000000
1709612049.344,0.000000
1709612050.344,0.000000
1709612051.344,0.000000
1709612052.345,0.000000
1709612053.344,0.000000
1709612054.344,0.000000
1709612055.344,0.000000
1709612056.344,0.000000
1709612057.344,0.000000
1709612058.344,0.000000
1709612059.345,0.000000
1709612060.344,0.000000
1709612061.344,0.000000
1709612062.344,0.000000
1709612063.344,0.000000
1709612064.345,0.000000
1709612065.345,0.000000
1709612066.344,0.000000
1709612067.344,0.000000
1709612068.345,0.000000
1709612069.345,0.000000
1709612070.344,0.000000
1709612071.344,0.000000
1709612072.345,0.000000
1709612073.344,0.000000
1709612074.344,0.000000
1709612075.344,0.000000
1709612076.344,0.000000
1709612077.344,0.000000
1709612078.344,0.000000
1709612079.344,0.000000
1709612080.345,0.000000
1709612081.345,0.000000
1709612082.344,0.000000
1709612083.344,0.000000
1709612084.344,0.000000
1709612085.344,0.000000
1709612086.345,0.000000
1709612087.344,0.000000
1709612088.345,0.000000
1709612089.344,0.000000
1709612090.344,0.000000
1709612091.344,0.000000
1709612092.345,0.000000
1709612093.344,0.000000
1709612094.345,0.000000
1709612095.344,0.000000
1709612096.344,0.000000
1709612097.344,0.000000
1709612098.345,0.000000
1709612099.344,0.000000
1709612100.345,0.000000
1709612101.344,0.000000
1709612102.345,0.000000
1709612103.344,0.000000
1709612104.345,0.000000
1709612105.344,0.000000
1709612106.344,0.000000
1709612107.344,0.000000
1709612108.345,0.000000
1709612109.344,0.000000
1709612110.344,0.000000
1709612111.344,0.000000
1709612112.344,0.000000
1709612113.345,0.000000
1709612114.344,0.000000
1709612115.344,0.000000
1709612116.344,0.000000
1709612117.345,0.000000
